[DEFAULT]

version = pdfgetx3-1.0-r2815-20150220

# input and output specifications
dataformat = Qnm
inputfile = Au_10nm_d204-00002_00009_sum.chi
backgroundfile = Kapton_d204-00010_00019_sum.chi
outputtype = iq

# PDF calculation setup
mode = xray
wavelength = 0.1839
composition = Au
bgscale = 0.78
rpoly = 0.9
qmaxinst = 28
qmin = 0.1
qmax = 28
rmin = 0
rmax = 60
rstep = 0.01

# End of config --------------------------------------------------------------

#### start data
#S 1
#L Q($\AA^{-1}$)  intensity(a.u.)
0.118421 0
0.139952 0
0.161483 0
0.183014 0
0.204545 0.000167627
0.226076 340.475
0.247607 437.342
0.269138 463.747
0.290669 373.077
0.3122 477.099
0.333731 588.457
0.355263 441.225
0.376794 320.394
0.398325 251.885
0.419856 155.759
0.441387 210.953
0.462918 125.933
0.484449 103.799
0.50598 190.624
0.527511 170.447
0.549042 14.3216
0.570573 -324.166
0.592104 -956.397
0.613635 -2366.56
0.635166 -4077.06
0.656697 -5701.1
0.678228 -7830.25
0.699759 -9843.31
0.721291 -11563.9
0.742822 -13406.5
0.764353 -15018.8
0.785884 -16576.8
0.807415 -18060.6
0.828946 -19457.5
0.850477 -20500.8
0.872008 -21822.2
0.893539 -22711.7
0.91507 -23338.4
0.936601 -23938.3
0.958132 -24238.8
0.979663 -24499.9
1.00119 -24618.7
1.02273 -24924.2
1.04426 -25278
1.06579 -25538
1.08732 -25715.5
1.10885 -25903.5
1.13038 -25983.1
1.15191 -25931.7
1.17344 -26010.1
1.19497 -26018.2
1.2165 -25958.4
1.23804 -25855.9
1.25957 -25733.2
1.2811 -25732.6
1.30263 -25854.1
1.32416 -25893.1
1.34569 -25740.5
1.36722 -25371.5
1.38875 -24893.8
1.41028 -24373.7
1.43182 -23811.4
1.45335 -23195.9
1.47488 -22590.8
1.49641 -22068.6
1.51794 -21505.5
1.53947 -21015.6
1.561 -20593.4
1.58253 -20120.7
1.60406 -19786
1.6256 -19429.2
1.64713 -18979.5
1.66866 -18701.5
1.69019 -18383.7
1.71172 -17987.7
1.73325 -17620.8
1.75478 -17348.8
1.77631 -17046.4
1.79784 -16907.7
1.81937 -16713.7
1.84091 -16430.6
1.86244 -16141.3
1.88397 -15789.8
1.9055 -15463.4
1.92703 -15122.1
1.94856 -14722.2
1.97009 -14374
1.99162 -13925.4
2.01315 -13463.7
2.03469 -13078.2
2.05622 -12766
2.07775 -12436.2
2.09928 -12016.4
2.12081 -11606.2
2.14234 -11187.4
2.16387 -10822.1
2.1854 -10381.5
2.20693 -9936.15
2.22846 -9471.71
2.25 -9063.82
2.27153 -8682.06
2.29306 -8329.88
2.31459 -7866.11
2.33612 -7283.03
2.35765 -6649.76
2.37918 -5943.07
2.40071 -5145.64
2.42224 -4061.02
2.44378 -2595.35
2.46531 -457.406
2.48684 2632.42
2.50837 7235.69
2.5299 14743.3
2.55143 27672.4
2.57296 51940.8
2.59449 95382.6
2.61602 158347
2.63755 226494
2.65909 274065
2.68062 284267
2.70215 249947
2.72368 187144
2.74521 121576
2.76674 73093.7
2.78827 44910.5
2.8098 29992.6
2.83133 22235.1
2.85287 18189.3
2.8744 16386.9
2.89593 16173.3
2.91746 17588.7
2.93899 20954.3
2.96052 27424.7
2.98205 38299.2
3.00358 55096.1
3.02511 76971.4
3.04665 98625.4
3.06818 112557
3.08971 112945
3.11124 99905.7
3.13277 76884.9
3.1543 52417
3.17583 32278.7
3.19736 18788.1
3.21889 10551.4
3.24042 5598.96
3.26196 2570.14
3.28349 595.462
3.30502 -750.743
3.32655 -1604.32
3.34808 -2223.29
3.36961 -2740.7
3.39114 -3112.91
3.41267 -3340.34
3.4342 -3538.17
3.45574 -3746.05
3.47727 -3927.35
3.4988 -4050.92
3.52033 -4163.97
3.54186 -4284.65
3.56339 -4359.74
3.58492 -4288.41
3.60645 -4160.3
3.62798 -4123.96
3.64951 -4058.29
3.67105 -4021.38
3.69258 -3936.99
3.71411 -3866.95
3.73564 -3799.4
3.75717 -3722.8
3.7787 -3601.15
3.80023 -3482.6
3.82176 -3360.35
3.84329 -3196.28
3.86483 -3073.28
3.88636 -2980.77
3.90789 -2841.18
3.92942 -2670.88
3.95095 -2509.51
3.97248 -2274.1
3.99401 -1998.02
4.01554 -1774.14
4.03707 -1558.5
4.05861 -1179.34
4.08014 -702.898
4.10167 -126.048
4.1232 508.454
4.14473 1292.54
4.16626 2394.33
4.18779 4025.85
4.20932 6518.83
4.23085 10464.4
4.25238 17122.8
4.27392 28571.2
4.29545 45386
4.31698 65369.4
4.33851 82211.7
4.36004 89811.3
4.38157 85571.6
4.4031 70985.3
4.42463 52110.3
4.44616 34793.5
4.4677 22399.9
4.48923 14803.2
4.51076 10364.4
4.53229 7659.84
4.55382 6048.59
4.57535 4999.51
4.59688 4223.3
4.61841 3741.05
4.63994 3425.3
4.66147 3231.31
4.68301 3086.6
4.70454 3000.2
4.72607 3006.17
4.7476 3133.84
4.76913 3326.01
4.79066 3515.64
4.81219 3789.84
4.83372 4151.37
4.85525 4673.36
4.87679 5355.46
4.89832 6291.81
4.91985 7676.88
4.94138 9715.46
4.96291 12805.6
4.98444 18023.7
5.00597 26970.6
5.0275 41833.1
5.04903 63127.6
5.07056 86791.2
5.0921 105030
5.11363 110685
5.13516 102480
5.15669 83410.4
5.17822 61103
5.19975 42146.1
5.22128 30257
5.24281 25215.7
5.26434 25714.1
5.28588 29962.9
5.30741 34786.3
5.32894 37394.9
5.35047 35862.9
5.372 30457.1
5.39353 22865.5
5.41506 15480.4
5.43659 9969.46
5.45812 6404.03
5.47966 4294.7
5.50119 3052.72
5.52272 2245.24
5.54425 1689.06
5.56578 1253.93
5.58731 940.642
5.60884 665.691
5.63037 504.086
5.6519 356.886
5.67343 150.883
5.69497 30.4434
5.7165 -53.5654
5.73803 -89.8501
5.75956 -91.5112
5.78109 -135.657
5.80262 -191.098
5.82415 -237.808
5.84568 -284.704
5.86721 -275.449
5.88875 -214.386
5.91028 -144.075
5.93181 4.92101
5.95334 250.292
5.97487 544.539
5.9964 899.596
6.01793 1450.47
6.03946 2223.12
6.06099 3416.58
6.08252 5065.83
6.10406 7087.13
6.12559 9121.69
6.14712 10516
6.16865 10873.8
6.19018 10142.2
6.21171 8672.44
6.23324 6895.17
6.25477 5191.34
6.2763 3941.86
6.29784 3135.52
6.31937 2652.4
6.3409 2333.84
6.36243 2218.45
6.38396 2189.84
6.40549 2250.14
6.42702 2428.12
6.44855 2641.19
6.47008 2959.06
6.49161 3416.42
6.51315 4000.89
6.53468 4781.75
6.55621 5872.41
6.57774 7459.48
6.59927 9953.23
6.6208 13974.3
6.64233 19943.6
6.66386 27606.8
6.68539 35008.1
6.70693 40265.6
6.72846 41620.8
6.74999 39438
6.77152 35520.1
6.79305 32373.7
6.81458 32279.9
6.83611 35280.6
6.85764 39418.6
6.87917 41642.1
6.90071 40246.4
6.92224 35193.9
6.94377 28002.8
6.9653 20638.9
6.98683 14573.3
7.00836 10521.6
7.02989 7971.83
7.05142 6359.3
7.07295 5344.54
7.09448 4666.02
7.11602 4166.45
7.13755 3827.75
7.15908 3562.96
7.18061 3374.2
7.20214 3276.18
7.22367 3224.54
7.2452 3207.14
7.26673 3222.26
7.28826 3290.8
7.3098 3406.63
7.33133 3610.14
7.35286 3887.68
7.37439 4327.62
7.39592 5048.7
7.41745 6142.86
7.43898 7896.13
7.46051 10603.3
7.48204 14272.4
7.50357 18333.5
7.52511 21820.8
7.54664 23445.1
7.56817 22711.2
7.5897 19995.9
7.61123 16179.7
7.63276 12447.7
7.65429 9407.46
7.67582 7329.16
7.69735 5989.44
7.71889 5177.38
7.74042 4677.27
7.76195 4381.11
7.78348 4335.41
7.80501 4467.52
7.82654 4761.93
7.84807 5313.38
7.8696 6307.39
7.89113 7873.82
7.91266 10274.5
7.9342 13766.9
7.95573 17808.4
7.97726 21322.9
7.99879 23108.8
8.02032 22579.3
8.04185 19913.7
8.06338 16034.4
8.08491 12042.9
8.10644 8801.68
8.12798 6444.97
8.14951 4844.5
8.17104 3816.36
8.19257 3131.94
8.2141 2691.06
8.23563 2311.33
8.25716 2025.51
8.27869 1839.28
8.30022 1735.9
8.32176 1595.05
8.34329 1504.9
8.36482 1469.94
8.38635 1462.51
8.40788 1453.94
8.42941 1440.81
8.45094 1450.93
8.47247 1508.35
8.494 1620.85
8.51553 1687.83
8.53707 1825.65
8.5586 2061.98
8.58013 2381.1
8.60166 2804.84
8.62319 3448.97
8.64472 4365.75
8.66625 5448.33
8.68778 6463.86
8.70931 7064.42
8.73085 7127.56
8.75238 6684.9
8.77391 5880.96
8.79544 4991.46
8.81697 4290.79
8.8385 3903.08
8.86003 3690.54
8.88156 3686.07
8.90309 3822.12
8.92462 4142.47
8.94616 4640.28
8.96769 5383.38
8.98922 6584.76
9.01075 8473.78
9.03228 11247.8
9.05381 14859.8
9.07534 18741.8
9.09687 21767.4
9.1184 23243
9.13994 23103
9.16147 21897
9.183 20564.6
9.20453 19560.9
9.22606 18596.5
9.24759 17382.8
9.26912 15608.6
9.29065 13467.9
9.31218 10983.8
9.33372 8663.56
9.35525 6936.92
9.37678 5755.4
9.39831 4946.44
9.41984 4399.96
9.44137 4033.74
9.4629 3750.9
9.48443 3570.26
9.50596 3468.02
9.52749 3383.52
9.54903 3358.64
9.57056 3447.37
9.59209 3595.33
9.61362 3875.75
9.63515 4303.42
9.65668 4941.95
9.67821 5712.17
9.69974 6489.5
9.72127 7078.56
9.74281 7277.08
9.76434 7054.88
9.78587 6473.2
9.8074 5695.7
9.82893 4914.32
9.85046 4289.61
9.87199 3774.21
9.89352 3438.97
9.91505 3301.44
9.93658 3280.46
9.95812 3391.73
9.97965 3649.24
10.0012 4105.98
10.0227 4834.47
10.0442 5743.15
10.0658 6744.27
10.0873 7596.89
10.1088 8127.77
10.1304 8396.26
10.1519 8446.8
10.1734 8348.92
10.195 8136.31
10.2165 7743.59
10.238 7110.04
10.2596 6214.12
10.2811 5239.55
10.3026 4280.34
10.3241 3498.39
10.3457 2936.03
10.3672 2545.7
10.3887 2249.94
10.4103 2040.44
10.4318 1887.24
10.4533 1774.94
10.4749 1729.74
10.4964 1699.73
10.5179 1711.24
10.5395 1704.44
10.561 1780.33
10.5825 1929.72
10.604 2156.12
10.6256 2453.96
10.6471 2701.37
10.6686 2866.01
10.6902 2908.63
10.7117 2791.01
10.7332 2650.32
10.7548 2523.55
10.7763 2450.34
10.7978 2435.56
10.8194 2560.66
10.8409 2773.9
10.8624 3097.87
10.884 3601.18
10.9055 4271.97
10.927 5201.37
10.9485 6321.25
10.9701 7385.26
10.9916 8146.49
11.0131 8497.77
11.0347 8484.57
11.0562 8187.48
11.0777 7717.41
11.0993 7142.3
11.1208 6498.8
11.1423 5817.67
11.1639 5178.88
11.1854 4546.12
11.2069 3968.94
11.2284 3546.91
11.25 3226.33
11.2715 3015.7
11.293 2880.97
11.3146 2857.32
11.3361 2922.83
11.3576 2981.95
11.3792 3143.56
11.4007 3405.64
11.4222 3838.84
11.4438 4461.28
11.4653 5215.9
11.4868 6064.81
11.5084 6714.45
11.5299 6975.58
11.5514 6817.74
11.5729 6328.2
11.5945 5652.17
11.616 4991.77
11.6375 4452.28
11.6591 4106.98
11.6806 4000.33
11.7021 4077.41
11.7237 4403.7
11.7452 4973.2
11.7667 5715.26
11.7883 6530.02
11.8098 7198.02
11.8313 7458.32
11.8528 7272.68
11.8744 6691.91
11.8959 5857.4
11.9174 4922.63
11.939 4094.45
11.9605 3425.63
11.982 2928.5
12.0036 2552.3
12.0251 2281.23
12.0466 2096.67
12.0682 1943.34
12.0897 1817.45
12.1112 1737.64
12.1328 1665.37
12.1543 1634.34
12.1758 1609.85
12.1973 1572.31
12.2189 1543.33
12.2404 1556.87
12.2619 1551.1
12.2835 1587.19
12.305 1609.21
12.3265 1600.11
12.3481 1604.21
12.3696 1565.62
12.3911 1581.05
12.4127 1581.79
12.4342 1566.82
12.4557 1625.42
12.4772 1734.29
12.4988 1885.77
12.5203 2087.87
12.5418 2366.71
12.5634 2667.9
12.5849 2968.05
12.6064 3331.99
12.628 3654.28
12.6495 3896.31
12.671 4072.26
12.6926 4174.4
12.7141 4070.09
12.7356 3804.03
12.7572 3452.5
12.7787 3034.59
12.8002 2672.38
12.8217 2359.64
12.8433 2148.57
12.8648 2007.83
12.8863 1914.83
12.9079 1878.26
12.9294 1894.22
12.9509 1964
12.9725 2095.05
12.994 2266.48
13.0155 2470.54
13.0371 2670.95
13.0586 2794.49
13.0801 2845.33
13.1017 2780.46
13.1232 2667.29
13.1447 2534.29
13.1662 2385.8
13.1878 2339.22
13.2093 2347.38
13.2308 2468.86
13.2524 2664.02
13.2739 2911.97
13.2954 3219.57
13.317 3503.2
13.3385 3691.83
13.36 3772.46
13.3816 3741.65
13.4031 3603.23
13.4246 3376.51
13.4461 3151.86
13.4677 2863.99
13.4892 2576.05
13.5107 2333.51
13.5323 2135.53
13.5538 1998.12
13.5753 1897.51
13.5969 1829.15
13.6184 1792.62
13.6399 1764.4
13.6615 1751.23
13.683 1796.26
13.7045 1871.54
13.7261 1975.04
13.7476 2043.84
13.7691 2108.87
13.7906 2125.65
13.8122 2129.98
13.8337 2137.23
13.8552 2113.69
13.8768 2062.82
13.8983 2090.18
13.9198 2197.36
13.9414 2376.15
13.9629 2649.09
13.9844 2960.22
14.006 3250.21
14.0275 3445.5
14.049 3548.77
14.0705 3563.05
14.0921 3458.9
14.1136 3253.98
14.1351 2990.49
14.1567 2720.37
14.1782 2445.52
14.1997 2193.78
14.2213 1995.04
14.2428 1804.03
14.2643 1650.03
14.2859 1543.94
14.3074 1489.43
14.3289 1464.04
14.3505 1451.8
14.372 1450.81
14.3935 1515.65
14.415 1544.83
14.4366 1537.49
14.4581 1532.25
14.4796 1511.6
14.5012 1444.83
14.5227 1361.15
14.5442 1328.38
14.5658 1289.7
14.5873 1274.4
14.6088 1333.98
14.6304 1387.65
14.6519 1406.86
14.6734 1422.85
14.6949 1419.47
14.7165 1385.92
14.738 1334.29
14.7595 1261.92
14.7811 1184.64
14.8026 1079.97
14.8241 1042.9
14.8457 994.333
14.8672 935.997
14.8887 910.121
14.9103 889.461
14.9318 901.183
14.9533 911.497
14.9749 936.036
14.9964 977.549
15.0179 1007.51
15.0394 1054.66
15.061 1090.92
15.0825 1118.02
15.104 1140.45
15.1256 1162.17
15.1471 1181.44
15.1686 1226.01
15.1902 1238.76
15.2117 1295.4
15.2332 1396.3
15.2548 1500.67
15.2763 1611.81
15.2978 1734.66
15.3194 1852.89
15.3409 1934.38
15.3624 1940.44
15.3839 1896.83
15.4055 1781.93
15.427 1685.75
15.4485 1586.06
15.4701 1471.59
15.4916 1373.15
15.5131 1320.73
15.5347 1298.71
15.5562 1273.2
15.5777 1289.46
15.5993 1301.94
15.6208 1371.19
15.6423 1436.32
15.6638 1486.16
15.6854 1560.11
15.7069 1604.45
15.7284 1622.8
15.75 1580.15
15.7715 1529.49
15.793 1470.9
15.8146 1458.78
15.8361 1444.98
15.8576 1457.53
15.8792 1507.73
15.9007 1555.08
15.9222 1590.84
15.9438 1613.78
15.9653 1600.42
15.9868 1566.33
16.0083 1488.52
16.0299 1387.57
16.0514 1287.11
16.0729 1176.26
16.0945 1088.01
16.116 1017.69
16.1375 950.055
16.1591 899.791
16.1806 880.184
16.2021 857.543
16.2237 845.364
16.2452 801.564
16.2667 792.964
16.2882 766.059
16.3098 725.813
16.3313 735.303
16.3528 738.976
16.3744 779.523
16.3959 825.078
16.4174 849.033
16.439 900.482
16.4605 944.032
16.482 987.614
16.5036 1094.54
16.5251 1153.87
16.5466 1174.12
16.5682 1224.18
16.5897 1243.68
16.6112 1207.4
16.6327 1146.07
16.6543 1057.91
16.6758 980.57
16.6973 906.251
16.7189 839.959
16.7404 805.505
16.7619 807.865
16.7835 811.271
16.805 799.693
16.8265 796.908
16.8481 803.798
16.8696 781.301
16.8911 793.152
16.9126 773.871
16.9342 712.671
16.9557 689.401
16.9772 700.321
16.9988 686.354
17.0203 656.429
17.0418 695.049
17.0634 685.635
17.0849 682.674
17.1064 701.319
17.128 672.718
17.1495 637.213
17.171 601.855
17.1926 586.115
17.2141 595.387
17.2356 550.621
17.2571 523
17.2787 519.04
17.3002 529.087
17.3217 511.982
17.3433 524.171
17.3648 548.763
17.3863 559.408
17.4079 594.442
17.4294 589.497
17.4509 608.72
17.4725 629.212
17.494 668.985
17.5155 683.217
17.537 738.91
17.5586 764.089
17.5801 809.54
17.6016 886.462
17.6232 926.851
17.6447 959.796
17.6662 996.475
17.6878 993.842
17.7093 956.134
17.7308 898.661
17.7524 820.652
17.7739 812.633
17.7954 795.357
17.817 737.569
17.8385 725.617
17.86 721.411
17.8815 706.675
17.9031 701.834
17.9246 697.13
17.9461 706.364
17.9677 723.578
17.9892 726.841
18.0107 731.805
18.0323 718.574
18.0538 692.428
18.0753 705.441
18.0969 727.772
18.1184 717.055
18.1399 725.581
18.1615 752.919
18.183 771.48
18.2045 759.678
18.226 737.922
18.2476 716.851
18.2691 691.659
18.2906 661.757
18.3122 637.622
18.3337 632.196
18.3552 571.346
18.3768 524.206
18.3983 511.107
18.4198 517.301
18.4414 531.38
18.4629 522.334
18.4844 525.727
18.5059 524.752
18.5275 545.153
18.549 536.545
18.5705 521.982
18.5921 530.841
18.6136 516.812
18.6351 528.61
18.6567 487.632
18.6782 512.035
18.6997 530.267
18.7213 519.222
18.7428 518.506
18.7643 511.284
18.7859 470.345
18.8074 466.997
18.8289 468.439
18.8504 477.012
18.872 473.79
18.8935 479.238
18.915 457.385
18.9366 471.066
18.9581 468.403
18.9796 482.292
19.0012 491.969
19.0227 488.333
19.0442 504.43
19.0658 514.433
19.0873 491.653
19.1088 485.91
19.1303 474.275
19.1519 493.844
19.1734 496.314
19.1949 466.691
19.2165 484.914
19.238 483.625
19.2595 462.614
19.2811 452.662
19.3026 400.259
19.3241 373.385
19.3457 372.887
19.3672 374.529
19.3887 363.225
19.4103 358.055
19.4318 364.627
19.4533 360.259
19.4748 355.136
19.4964 329.465
19.5179 343.354
19.5394 374.44
19.561 370.806
19.5825 364.023
19.604 390.467
19.6256 409.7
19.6471 409.338
19.6686 414.37
19.6902 425.934
19.7117 436.568
19.7332 450.99
19.7547 446.531
19.7763 428.725
19.7978 443.876
19.8193 439.18
19.8409 446.607
19.8624 426.464
19.8839 420.886
19.9055 427.837
19.927 444.789
19.9485 459.832
19.9701 475.942
19.9916 466.366
20.0131 444.477
20.0347 445.87
20.0562 459.032
20.0777 462.911
20.0992 475.94
20.1208 472.883
20.1423 494.769
20.1638 489.062
20.1854 490.087
20.2069 484.054
20.2284 458.316
20.25 457.562
20.2715 423.5
20.293 448.376
20.3146 450.086
20.3361 429.732
20.3576 409.108
20.3791 413.381
20.4007 432.403
20.4222 465.407
20.4437 429.467
20.4653 409.472
20.4868 431.596
20.5083 441.35
20.5299 445.175
20.5514 443.367
20.5729 464.017
20.5945 476.051
20.616 460.419
20.6375 460.088
20.6591 443.005
20.6806 467.346
20.7021 460.537
20.7236 430.252
20.7452 405.059
20.7667 418.809
20.7882 398.041
20.8098 386.98
20.8313 380.793
20.8528 356.395
20.8744 331.36
20.8959 359.823
20.9174 371.784
20.939 351.746
20.9605 339.763
20.982 360.242
21.0036 350.026
21.0251 345.494
21.0466 336.725
21.0681 337.803
21.0897 354.12
21.1112 333.413
21.1327 333.748
21.1543 344.074
21.1758 332.666
21.1973 329.309
21.2189 349.618
21.2404 332.36
21.2619 333.41
21.2835 324.524
21.305 312.06
21.3265 319.895
21.348 314.831
21.3696 327.456
21.3911 340.519
21.4126 344.611
21.4342 349.654
21.4557 323.337
21.4772 349.182
21.4988 346.884
21.5203 347.057
21.5418 342.644
21.5634 363.569
21.5849 364.591
21.6064 360.549
21.628 353.498
21.6495 339.403
21.671 323.609
21.6925 335.321
21.7141 342.718
21.7356 328.944
21.7571 348.39
21.7787 337.993
21.8002 336.931
21.8217 313.735
21.8433 308.593
21.8648 310.868
21.8863 322.637
21.9079 327.638
21.9294 339.603
21.9509 355.09
21.9724 355.146
21.994 338.715
22.0155 308.884
22.037 312.457
22.0586 338.163
22.0801 330.053
22.1016 338.08
22.1232 320.407
22.1447 317.25
22.1662 320.605
22.1878 326.245
22.2093 308.02
22.2308 304.068
22.2524 314.847
22.2739 310.595
22.2954 341.074
22.3169 315.274
22.3385 324.28
22.36 328.117
22.3815 345.142
22.4031 339.243
22.4246 324.159
22.4461 320.488
22.4677 335.162
22.4892 315.48
22.5107 304.916
22.5323 311.845
22.5538 317.219
22.5753 315.791
22.5968 335.649
22.6184 315.136
22.6399 313.641
22.6614 318.709
22.683 308.444
22.7045 313.214
22.726 312.531
22.7476 299.684
22.7691 303.84
22.7906 303.105
22.8122 304.964
22.8337 291.015
22.8552 276.399
22.8768 304.979
22.8983 307.751
22.9198 299.577
22.9413 303.892
22.9629 292.622
22.9844 274.688
23.0059 289.429
23.0275 309.573
23.049 305.939
23.0705 276.23
23.0921 280.367
23.1136 295.641
23.1351 290.024
23.1567 277.394
23.1782 286.184
23.1997 303.721
23.2212 307.687
23.2428 315.938
23.2643 305.008
23.2858 316.197
23.3074 312.559
23.3289 284.364
23.3504 284.541
23.372 289.909
23.3935 281.718
23.415 281.351
23.4366 286.04
23.4581 296.945
23.4796 300.109
23.5012 292.851
23.5227 287.356
23.5442 291.159
23.5657 281.958
23.5873 273.359
23.6088 279.214
23.6303 286.346
23.6519 285.254
23.6734 279.148
23.6949 259.443
23.7165 271.357
23.738 271.984
23.7595 281.907
23.7811 288.65
23.8026 290.987
23.8241 293.798
23.8457 286.8
23.8672 300.109
23.8887 271.292
23.9102 276.07
23.9318 266.639
23.9533 277.418
23.9748 292.33
23.9964 278.923
24.0179 280.243
24.0394 295.208
24.061 294.867
24.0825 298.391
24.104 302.979
24.1256 296.758
24.1471 307.627
24.1686 294.653
24.1901 289.78
24.2117 301.974
24.2332 301.525
24.2547 332.141
24.2763 326.799
24.2978 307.529
24.3193 315.892
24.3409 330.455
24.3624 320.901
24.3839 318.85
24.4055 311.034
24.427 295.658
24.4485 307.262
24.4701 332.699
24.4916 330.134
24.5131 317.264
24.5346 305.801
24.5562 298.832
24.5777 306.093
24.5992 318.317
24.6208 286.314
24.6423 297.488
24.6638 289.042
24.6854 300.756
24.7069 286.65
24.7284 316.685
24.75 314.53
24.7715 316.118
24.793 293.751
24.8145 321.264
24.8361 323.073
24.8576 295.435
24.8791 297.755
24.9007 296.532
24.9222 323.625
24.9437 300.463
24.9653 316.764
24.9868 332.689
25.0083 321.59
25.0299 310.35
25.0514 295.482
25.0729 315.638
25.0945 299.952
25.116 306.13
25.1375 285.338
25.159 312.005
25.1806 321.669
25.2021 299.656
25.2236 332.256
25.2452 324.867
25.2667 312.277
25.2882 317.17
25.3098 313.597
25.3313 327.849
25.3528 325.287
25.3744 313.817
25.3959 315.867
25.4174 323.789
25.4389 324.842
25.4605 315.984
25.482 316.243
25.5035 324.099
25.5251 318.029
25.5466 319.33
25.5681 333.379
25.5897 329.955
25.6112 333.105
25.6327 320.832
25.6543 329.1
25.6758 320.745
25.6973 304.277
25.7189 328.746
25.7404 340.811
25.7619 342
25.7834 343.938
25.805 316.804
25.8265 308.936
25.848 351.06
25.8696 316.172
25.8911 300.45
25.9126 292.314
25.9342 320.451
25.9557 316.688
25.9772 308.536
25.9988 311.26
26.0203 295.231
26.0418 293.491
26.0633 306.689
26.0849 336.015
26.1064 300.133
26.1279 314.105
26.1495 292.559
26.171 262.137
26.1925 286.894
26.2141 296.587
26.2356 279.641
26.2571 308.583
26.2787 283.588
26.3002 259.519
26.3217 273.36
26.3433 266.556
26.3648 265.812
26.3863 258.115
26.4078 265.577
26.4294 268.04
26.4509 264.867
26.4724 271.704
26.494 281.406
26.5155 275.514
26.537 267.957
26.5586 271.552
26.5801 279.116
26.6016 300.772
26.6232 297.173
26.6447 302.239
26.6662 282.748
26.6878 295.758
26.7093 274.774
26.7308 282.756
26.7523 290.742
26.7739 304.057
26.7954 289.668
26.8169 299.052
26.8385 310.49
26.86 296.919
26.8815 300.367
26.9031 305.76
26.9246 281.202
26.9461 301.618
26.9677 319.617
26.9892 301.481
27.0107 294.398
27.0322 316.847
27.0538 339.023
27.0753 309.859
27.0968 328.417
27.1184 305.952
27.1399 297.717
27.1614 303.155
27.183 297.101
27.2045 305.92
27.226 321.404
27.2476 302.796
27.2691 308.606
27.2906 308.201
27.3122 318.327
27.3337 315.634
27.3552 312.7
27.3767 276.403
27.3983 300.719
27.4198 296.85
27.4413 287.999
27.4629 315.013
27.4844 325.655
27.5059 311.26
27.5275 307.459
27.549 300.016
27.5705 310.625
27.5921 304.21
27.6136 321.951
27.6351 319.621
27.6566 319.291
27.6782 303.535
27.6997 271.018
27.7212 280.274
27.7428 307.009
27.7643 306.891
27.7858 335.113
27.8074 295.607
27.8289 308.559
27.8504 321.087
27.872 333.527
27.8935 315.693
27.915 299.267
27.9366 337.971
27.9581 309.792
27.9796 303.675
